Time (s)	Channel 1 (V)	Channel 2 (V)
-0.8	0.03140886034296009	0.02076307354937772
-0.79975	0.04621432298245463	0.03561817865356401
-0.7995000000000001	0.0610197856219357	0.05047328375773677
-0.79925	0.07212388260155157	0.0653283888619163
-0.7989999999999999	0.08692934524104778	0.07646971769006107
-0.7987500000000001	0.1054361735403992	0.09875237534632024
-0.7985	0.120241636179887	0.1098937041744549
-0.7982499999999999	0.1350470988193815	0.1247488092786412
-0.798	0.1498525614588626	0.1396039143828139
-0.79775	0.1609566584384852	0.1544590194870002
-0.7975000000000001	0.1757621210779662	0.169314124591173
-0.79725	0.1905675837174541	0.1841692296953525
-0.7969999999999999	0.2053730463569486	0.1953105585234939
-0.7967500000000001	0.2201785089964297	0.2101656636276667
-0.7965	0.2349839716359242	0.2250207687318529
-0.7962499999999999	0.249789434275412	0.2398758738360325
-0.796	0.2645948969148931	0.2547309789402052
-0.79575	0.2756989938945157	0.2658723077683484
-0.7955000000000001	0.2905044565339968	0.2844411891485643
-0.79525	0.3053099191734846	0.2992962942527438
-0.7949999999999999	0.3201153818129792	0.3104376230808852
-0.7947500000000001	0.3349208444524602	0.325292728185058
-0.7945	0.3460249414320845	0.3401478332892443
-0.7942499999999999	0.3645317697314409	0.3550029383934221
-0.794	0.3756358667110517	0.3661442672215517
-0.79375	0.3904413293505463	0.380999372325738
-0.7935000000000001	0.4052467919900273	0.3958544774299108
-0.79325	0.4163508889696432	0.4107095825340903
-0.7929999999999999	0.4311563516091395	0.4218509113622333
-0.7927500000000001	0.4496631799084908	0.4404197927424494
-0.7925	0.4607672768881134	0.4515611215705908
-0.7922499999999999	0.4755727395276012	0.4664162266747703
-0.792	0.4903782021670823	0.481271331778943
-0.79175	0.5051836648065768	0.4961264368831294
-0.7915000000000001	0.5199891274460579	0.5109815419873021
-0.79125	0.5347945900855456	0.5258366470914816
-0.7909999999999999	0.5496000527250385	0.5406917521956679
-0.7907500000000001	0.5607041497046493	0.5555468572998407
-0.7905	0.575509612344144	0.5666881861279821
-0.7902499999999999	0.5903150749836318	0.5815432912321616
-0.79	0.6051205376231128	0.5963983963363344
-0.78975	0.6199260002626074	0.6112535014405207
-0.7895000000000001	0.6347314629020884	0.6261086065446935
-0.78925	0.6495369255415763	0.640963711648873
-0.7889999999999999	0.6606410225211988	0.6521050404770143
-0.7887500000000001	0.67544648516068	0.6669601455811871
-0.7885	0.6902519478001745	0.6818152506853734
-0.7882499999999999	0.7050574104396623	0.6966703557895529
-0.788	0.7198628730791433	0.7115254608937257
-0.78775	0.7309669700587677	0.7226667897218672
-0.7875000000000001	0.749473798358119	0.7375218948260399
-0.78725	0.7605778953377348	0.7523769999302194
-0.7869999999999999	0.7753833579772293	0.7672321050344041
-0.7867500000000001	0.7901888206167105	0.7783734338625335
-0.7865	0.804994283256205	0.7932285389667199
-0.7862499999999999	0.8197997458956928	0.8080836440708994
-0.786	0.8346052085351738	0.8229387491750721
-0.7857499999999999	0.8457093055147965	0.8377938542792585
-0.7855000000000001	0.8605147681542775	0.8526489593834312
-0.78525	0.8753202307937653	0.8637902882115659
-0.7849999999999999	0.8901256934332582	0.8786453933157522
-0.7847500000000001	0.901229790412869	0.8935004984199248
-0.7845	0.9197366187122338	0.9083556035241112
-0.7842499999999999	0.9308407156918515	0.9232107086282907
-0.784	0.9456461783313325	0.9380658137324634
-0.7837499999999999	0.960451640970827	0.9529209188366498
-0.7835000000000001	0.975257103610308	0.9677760239408225
-0.78325	0.9863612005899239	0.9789173527689572
-0.7829999999999999	1.001166663229418	0.9937724578731435
-0.7827500000000001	1.015972125868899	1.008627562977316
-0.7825	1.030777588508394	1.023482668081502
-0.7822499999999999	1.04558305114788	1.03833777318568
-0.782	1.056687148127491	1.04947910201381
-0.7817499999999999	1.071492610766986	1.064334207117996
-0.7815000000000001	1.086298073406467	1.079189312222169
-0.78125	1.101103536045954	1.094044417326349
-0.7809999999999999	1.115908998685449	1.10518574615449
-0.7807500000000001	1.13071446132493	1.120040851258663
-0.7805	1.145519923964423	1.134895956362849
-0.7802499999999999	1.156624020944041	1.149751061467028
-0.78	1.171429483583522	1.164606166571201
-0.7797499999999999	1.186234946223016	1.179461271675387
-0.7795000000000001	1.201040408862497	1.19431637677956
-0.77925	1.215845871501985	1.20917148188374
-0.7789999999999999	1.226949968481608	1.220312810711881
-0.7787500000000001	1.241755431121089	1.235167915816054
-0.7785	1.260262259420454	1.25002302092024
-0.7782499999999999	1.271366356400071	1.264878126024418
-0.778	1.286171819039552	1.276019454852548
-0.7777499999999999	1.300977281679045	1.290874559956734
-0.7775000000000001	1.312081378658656	1.305729665060907
-0.77725	1.330588206958016	1.320584770165086
-0.7769999999999999	1.341692303937638	1.331726098993228
-0.7767500000000001	1.356497766577119	1.346581204097401
-0.7765	1.371303229216614	1.361436309201587
-0.7762499999999999	1.3861086918561	1.376291414305766
-0.776	1.397212788835711	1.391146519409939
-0.7757499999999999	1.412018251475205	1.406001624514124
-0.7755000000000001	1.426823714114686	1.417142953342253
-0.77525	1.441629176754174	1.431998058446433
-0.7749999999999999	1.456434639393668	1.450566939826662
-0.77475	1.47124010203315	1.461708268654792
-0.7745	1.486045564672642	1.476563373758978
-0.7742499999999999	1.49714966165226	1.491418478863156
-0.774	1.511955124291741	1.502559807691285
-0.7737499999999999	1.526760586931236	1.517414912795472
-0.7735000000000001	1.541566049570717	1.532270017899644
-0.77325	1.552670146550333	1.547125123003824
-0.7729999999999999	1.567475609189827	1.561980228108009
-0.77275	1.582281071829308	1.573121556936138
-0.7725	1.597086534468801	1.587976662040324
-0.7722499999999999	1.608190631448419	1.602831767144502
-0.772	1.6229960940879	1.613973095972632
-0.7717499999999999	1.637801556727393	1.628828201076818
-0.7715000000000001	1.648905653707004	1.643683306180991
-0.77125	1.667412482006363	1.65853841128517
-0.7709999999999999	1.682217944645858	1.673393516389357
-0.77075	1.697023407285339	1.688248621493529
-0.7705	1.708127504264962	1.699389950321671
-0.7702499999999999	1.722932966904449	1.714245055425849
-0.77	1.73773842954393	1.725386384253978
-0.7697499999999999	1.752543892183423	1.740241489358165
-0.7695000000000001	1.763647989163034	1.755096594462337
-0.76925	1.778453451802522	1.766237923290472
-0.7689999999999999	1.793258914442017	1.781093028394658
-0.76875	1.808064377081497	1.795948133498831
-0.7685	1.81916847406112	1.810803238603017
-0.7682500000000001	1.833973936700601	1.82565834370719
-0.768	1.848779399340089	1.84051344881137
-0.7677499999999999	1.859883496319713	1.851654777639511
-0.7675000000000001	1.878390324619065	1.866509882743684
-0.76725	1.88949442159868	1.881364987847863
-0.7669999999999999	1.904299884238175	1.896220092952048
-0.76675	1.919105346877656	1.907361421780178
-0.7665	1.933910809517151	1.925930303160409
-0.7662500000000001	1.948716272156632	1.940785408264581
-0.766	1.959820369136247	1.951926737092716
-0.7657499999999999	1.974625831775741	1.966781842196901
-0.7655000000000001	1.985729928755351	1.97792317102503
-0.76525	2.000535391394843	1.992778276129215
-0.7649999999999999	2.007938122714587	2.003919604957346
-0.76475	2.015340854034327	2.007633381233389
-0.7645	2.030146316673822	2.018774710061532
-0.7642500000000001	2.044951779313303	2.037343591441749
-0.764	2.056055876292918	2.048484920269883
-0.7637499999999999	2.070861338932413	2.06334002537407
-0.7635000000000001	2.085666801571894	2.078195130478242
-0.76325	2.100472264211387	2.093050235582427
-0.7629999999999999	2.111576361191005	2.104191564410563
-0.76275	2.126381823830485	2.119046669514736
-0.7625	2.14118728646998	2.133901774618922
-0.7622500000000001	2.155992749109461	2.148756879723095
-0.762	2.170798211748949	2.163611984827274
-0.7617499999999999	2.181902308728572	2.174753313655416
-0.7615000000000001	2.196707771368053	2.189608418759589
-0.76125	2.211513234007545	2.204463523863773
-0.7609999999999999	2.222617330987163	2.215604852691908
-0.76075	2.237422793626644	2.226746181520038
-0.7605	2.252228256266137	2.245315062900267
-0.7602500000000001	2.263332353245748	2.256456391728396
-0.76	2.278137815885235	2.267597720556531
-0.7597499999999999	2.292943278524728	2.282452825660717
-0.7595000000000001	2.304047375504339	2.29730793076489
-0.75925	2.322554203803704	2.312163035869076
-0.7589999999999999	2.333658300783322	2.327018140973254
-0.75875	2.348463763422803	2.338159469801384
-0.7585	2.363269226062297	2.35301457490557
-0.7582500000000001	2.378074688701779	2.367869680009743
-0.758	2.389178785681394	2.382724785113923
-0.7577499999999999	2.403984248320889	2.397579890218107
-0.7575000000000001	2.41878971096037	2.408721219046237
-0.75725	2.433595173599862	2.423576324150423
-0.7569999999999999	2.44469927057948	2.438431429254601
-0.75675	2.459504733218961	2.449572758082731
-0.7565	2.470608830198584	2.464427863186915
-0.7562500000000001	2.485414292838065	2.475569192015045
-0.756	2.500219755477553	2.490424297119224
-0.7557499999999999	2.511323852457175	2.50527940222341
-0.7555000000000001	2.526129315096656	2.520134507327583
-0.75525	2.537233412076279	2.531275836155723
-0.7549999999999999	2.552038874715767	2.542417164983859
-0.75475	2.566844337355248	2.557272270088032
-0.7544999999999999	2.581649799994741	2.572127375192218
-0.7542500000000001	2.592753896974352	2.586982480296391
-0.754	2.607559359613839	2.60183758540057
-0.7537499999999999	2.622364822253334	2.61297891422871
-0.7535000000000001	2.637170284892815	2.62412024305684
-0.75325	2.648274381872437	2.638975348161026
-0.7529999999999999	2.663079844511924	2.653830453265204
-0.75275	2.674183941491535	2.664971782093334
-0.7524999999999999	2.688989404131029	2.67982688719752
-0.7522500000000001	2.70379486677051	2.694681992301692
-0.752	2.714898963750126	2.705823321129827
-0.7517499999999999	2.72970442638962	2.724392202510056
-0.7515000000000001	2.744509889029102	2.735533531338186
-0.75125	2.759315351668594	2.75038863644237
-0.7509999999999999	2.770419448648212	2.761529965270507
-0.75075	2.785224911287693	2.77638507037468
-0.7504999999999999	2.796329008267316	2.791240175478864
-0.7502500000000001	2.811134470906797	2.802381504306994
-0.75	2.825939933546285	2.817236609411173
-0.7497499999999999	2.837044030525909	2.832091714515359
-0.7495000000000001	2.85555085882526	2.846946819619532
-0.74925	2.866654955804883	2.858088148447674
-0.7489999999999999	2.881460418444371	2.872943253551851
-0.74875	2.896265881083852	2.884084582379981
-0.7484999999999999	2.911071343723345	2.898939687484167
-0.7482500000000001	2.922175440702956	2.91379479258834
-0.748	2.933279537682571	2.92864989769252
-0.7477499999999999	2.948085000322066	2.939791226520661
-0.7475000000000001	2.962890462961547	2.954646331624835
-0.74725	2.973994559941169	2.965787660452977
-0.7469999999999999	2.988800022580657	2.984356541833198
-0.74675	3.003605485220139	2.995497870661328
-0.7464999999999999	3.014709582199761	3.006639199489469
-0.7462500000000001	3.029515044839242	3.021494304593642
-0.746	3.04432050747873	3.036349409697822
-0.7457499999999999	3.055424604458353	3.047490738525963
-0.7455000000000001	3.070230067097834	3.062345843630136
-0.74525	3.085035529737326	3.07720094873432
-0.7449999999999999	3.096139626716944	3.088342277562457
-0.74475	3.110945089356425	3.10319738266663
-0.7444999999999999	3.125750551995918	3.114338711494771
-0.7442500000000001	3.136854648975529	3.129193816598944
-0.744	3.151660111615016	3.140335145427079
-0.7437499999999999	3.162764208594639	3.155190250531263
-0.7435	3.17756967123412	3.166331579359392
-0.74325	3.188673768213743	3.181186684463577
-0.7429999999999999	3.20347923085323	3.192328013291713
-0.74275	3.218284693492712	3.207183118395887
-0.7424999999999999	3.229388790472334	3.222038223500071
-0.7422500000000001	3.244194253111815	3.233179552328201
-0.742	3.255298350091431	3.24803465743238
-0.7417499999999999	3.270103812730924	3.259175986260521
-0.7415	3.281207909710535	3.274031091364694
-0.74125	3.296013372350029	3.28888619646888
-0.7409999999999999	3.310818834989517	3.30374130157306
-0.74075	3.325624297628998	3.318596406677233
-0.7404999999999999	3.336728394608619	3.326023959229329
-0.7402500000000001	3.34783249158823	3.340879064333502
-0.74	3.362637954227718	3.355734169437682
-0.7397499999999999	3.37374205120734	3.366875498265823
-0.7395	3.388547513846822	3.381730603369996
-0.73925	3.403352976486314	3.392871932198137
-0.7389999999999999	3.414457073465932	3.407727037302315
-0.73875	3.429262536105413	3.418868366130444
-0.7384999999999999	3.440366633085036	3.433723471234629
-0.7382500000000001	3.455172095724517	3.444864800062758
-0.738	3.469977558364004	3.459719905166939
-0.7377499999999999	3.484783021003497	3.474575010271123
-0.7375	3.495887117983108	3.485716339099253
-0.73725	3.50699121496273	3.500571444203437
-0.7370000000000001	3.521796677602212	3.511712773031566
-0.73675	3.532900774581828	3.526567878135746
-0.7364999999999999	3.547706237221322	3.537709206963887
-0.7362500000000001	3.562511699860803	3.552564312068061
-0.736	3.573615796840419	3.563705640896194
-0.7357499999999999	3.588421259479914	3.578560746000381
-0.7355	3.603226722119395	3.593415851104554
-0.73525	3.610629453439145	3.604557179932695
-0.7350000000000001	3.625434916078627	3.619412285036868
-0.73475	3.640240378718114	3.630553613865002
-0.7344999999999999	3.651344475697737	3.641694942693144
-0.7342500000000001	3.666149938337218	3.656550047797317
-0.734	3.677254035316841	3.671405152901501
-0.7337499999999999	3.692059497956326	3.682546481729637
-0.7335	3.703163594935937	3.69740158683381
-0.73325	3.71796905757543	3.70854291566195
-0.7330000000000001	3.729073154555041	3.71968424449008
-0.73275	3.743878617194529	3.734539349594259
-0.7324999999999999	3.754982714174151	3.745680678422401
-0.7322500000000001	3.769788176813633	3.760535783526573
-0.732	3.780892273793255	3.775390888630758
-0.7317499999999999	3.795697736432743	3.786532217458894
-0.7315	3.810503199072224	3.801387322563067
-0.73125	3.821607296051845	3.812528651391208
-0.7310000000000001	3.832711393031456	3.827383756495381
-0.73075	3.847516855670944	3.838525085323516
-0.7304999999999999	3.862322318310435	3.8533801904277
-0.7302500000000001	3.869725049630175	3.86452151925583
-0.73	3.88453051226967	3.879376624360015
-0.7297499999999999	3.899335974909156	3.890517953188149
-0.7295	3.910440071888767	3.901659282016279
-0.72925	3.92524553452826	3.916514387120465
-0.7290000000000001	3.936349631507871	3.931369492224638
-0.72875	3.951155094147358	3.942510821052773
-0.7284999999999999	3.962259191126979	3.953652149880914
-0.7282500000000001	3.97336328810659	3.968507254985087
-0.728	3.988168750746084	3.979648583813229
-0.7277499999999999	4.002974213385571	3.994503688917406
-0.7275	4.014078310365181	4.005645017745535
-0.72725	4.028883773004675	4.02050012284972
-0.7270000000000001	4.039987869984285	4.031641451677849
-0.72675	4.051091966963901	4.046496556782029
-0.7264999999999999	4.065897429603396	4.057637885610169
-0.7262500000000001	4.080702892242877	4.068779214438298
-0.726	4.091806989222498	4.07992054326644
-0.7257499999999999	4.102911086202115	4.094775648370618
-0.7255	4.117716548841596	4.105916977198747
-0.72525	4.128820645821219	4.120772082302932
-0.7250000000000001	4.1436261084607	4.131913411131062
-0.72475	4.154730205440316	4.146768516235241
-0.7244999999999999	4.165834302419939	4.154196068787338
-0.7242500000000001	4.18063976505942	4.169051173891511
-0.724	4.191743862039041	4.183906278995695
-0.7237499999999999	4.202847959018658	4.19504760782383
-0.7235	4.217653421658139	4.206188936651959
-0.7232499999999999	4.228757518637762	4.221044041756144
-0.7230000000000001	4.243562981277242	4.232185370584273
-0.72275	4.254667078256858	4.243326699412408
-0.7224999999999999	4.269472540896352	4.258181804516594
-0.7222500000000001	4.280576637875962	4.273036909620767
-0.722	4.291680734855585	4.284178238448907
-0.7217499999999999	4.306486197495071	4.295319567277043
-0.7215	4.317590294474682	4.310174672381216
-0.7212499999999999	4.332395757114175	4.321316001209356
-0.7210000000000001	4.343499854093785	4.332457330037485
-0.72075	4.354603951073401	4.347312435141665
-0.7204999999999999	4.365708048053024	4.358453763969805
-0.7202500000000001	4.380513510692505	4.369595092797934
-0.72	4.391617607672128	4.384450197902119
-0.7197499999999999	4.406423070311614	4.395591526730254
-0.7195	4.417527167291224	4.406732855558383
-0.7192499999999999	4.428631264270847	4.421587960662568
-0.7190000000000001	4.443436726910329	4.432729289490696
-0.71875	4.454540823889944	4.443870618318831
-0.7184999999999999	4.465644920869567	4.458725723423016
-0.7182500000000001	4.480450383509048	4.469867052251145
-0.718	4.491554480488671	4.481008381079287
-0.7177499999999999	4.506359943128157	4.495863486183465
-0.7175	4.517464040107767	4.507004815011594
-0.7172499999999999	4.528568137087388	4.518146143839736
-0.7170000000000001	4.539672234066999	4.533001248943909
-0.71675	4.554477696706487	4.544142577772043
-0.7164999999999999	4.565581793686108	4.555283906600185
-0.7162500000000001	4.576685890665718	4.570139011704358
-0.716	4.591491353305211	4.581280340532498
-0.7157499999999999	4.602595450284827	4.592421669360632
-0.7155	4.613699547264438	4.603562998188761
-0.7152499999999999	4.628505009903931	4.618418103292946
-0.7150000000000001	4.639609106883541	4.629559432121075
-0.71475	4.650713203863157	4.64070076094921
-0.7144999999999999	4.66181730084278	4.655555866053395
-0.7142500000000001	4.676622763482261	4.666697194881524
-0.714	4.687726860461883	4.677838523709664
-0.7137499999999999	4.698830957441499	4.688979852537799
-0.7135	4.709935054421109	4.700121181365929
-0.7132499999999999	4.724740517060604	4.714976286470113
-0.7130000000000001	4.739545979700084	4.726117615298243
-0.71275	4.7506500766797	4.740972720402422
-0.7124999999999999	4.761754173659323	4.752114049230564
-0.71225	4.776559636298804	4.766969154334737
-0.712	4.783962367618555	4.778110483162876
-0.7117499999999999	4.798767830258041	4.789251811991011
-0.7115	4.809871927237651	4.80039314081914
-0.7112499999999999	4.820976024217273	4.811534469647282
-0.7110000000000001	4.832080121196883	4.826389574751454
-0.71075	4.843184218176499	4.837530903579589
-0.7104999999999999	4.857989680815992	4.848672232407729
-0.71025	4.869093777795602	4.859813561235859
-0.71	4.883899240435096	4.874668666340043
-0.7097499999999999	4.895003337414711	4.885809995168178
-0.7095	4.906107434394322	4.896951323996307
-0.7092499999999999	4.917211531373943	4.908092652824447
-0.7090000000000001	4.928315628353554	4.919233981652576
-0.70875	4.943121090993042	4.930375310480711
-0.7084999999999999	4.954225187972663	4.945230415584896
-0.70825	4.965329284952274	4.956371744413025
-0.708	4.976433381931897	4.967513073241167
-0.7077499999999999	4.991238844571381	4.982368178345343
-0.7075	4.998641575891121	4.989795730897429
-0.7072499999999999	5.002342941550999	4.99350950717348
-0.7070000000000001	5.013447038530609	5.004650836001608
-0.70675	5.024551135510225	5.015792164829743
-0.7064999999999999	5.035655232489848	5.026933493657885
-0.70625	5.050460695129328	5.041788598762057
-0.706	5.06156479210895	5.052929927590197
-0.7057500000000001	5.07266888908856	5.064071256418327
-0.7055	5.083772986068176	5.075212585246462
-0.7052499999999999	5.094877083047799	5.086353914074602
-0.7050000000000001	5.10968254568728	5.09749524290273
-0.70475	5.120786642666896	5.108636571730865
-0.7044999999999999	5.131890739646517	5.119777900559005
-0.70425	5.142994836626127	5.130919229387135
-0.704	5.154098933605749	5.142060558215275
-0.7037500000000001	5.165203030585359	5.153201887043404
-0.7035	5.180008493224847	5.164343215871539
-0.7032499999999999	5.191112590204468	5.179198320975724
-0.7030000000000001	5.202216687184078	5.190339649803852
-0.70275	5.2133207841637	5.19776720235595
-0.7024999999999999	5.224424881143316	5.212622307460127
-0.70225	5.235528978122926	5.223763636288257
-0.702	5.250334440762419	5.234904965116399
